# TOPAS Version: 3.7.p1
# Parameter File: TSEPVC_AP_spoiler_gn.txt
# Results for scorer EDeposit
# Scored in component: PVC
# X in 120 bins of 1 cm
# Y in 240 bins of 1 cm
# Z in 4 bins of 0.2 cm
# EnergyDeposit ( MeV ) : Sum   
0, 0, 0, 32.45149993896484
0, 0, 1, 30.39169502258301
0, 0, 2, 31.24580383300781
0, 0, 3, 24.0478343963623
0, 1, 0, 35.68436050415039
0, 1, 1, 34.09128189086914
0, 1, 2, 23.16830825805664
0, 1, 3, 19.45771408081055
0, 2, 0, 28.91494369506836
0, 2, 1, 28.81562042236328
0, 2, 2, 25.06855010986328
0, 2, 3, 17.39214324951172
0, 3, 0, 32.48983764648438
0, 3, 1, 26.01203346252441
0, 3, 2, 31.07128524780273
0, 3, 3, 21.62108612060547
0, 4, 0, 30.80663108825684
0, 4, 1, 32.16309356689453
0, 4, 2, 28.18660545349121
0, 4, 3, 22.96631813049316
0, 5, 0, 30.28585243225098
0, 5, 1, 36.67704010009766
0, 5, 2, 27.08840179443359
0, 5, 3, 25.74892044067383
0, 6, 0, 34.87178039550781
0, 6, 1, 24.98100090026855
0, 6, 2, 26.55018043518066
0, 6, 3, 17.59614181518555
0, 7, 0, 22.72120475769043
0, 7, 1, 27.20476150512695
0, 7, 2, 19.8465518951416
0, 7, 3, 20.99580574035645
0, 8, 0, 39.38539123535156
0, 8, 1, 41.31657028198242
0, 8, 2, 32.55243301391602
0, 8, 3, 25.05809211730957
0, 9, 0, 40.72023773193359
0, 9, 1, 36.67476654052734
0, 9, 2, 25.35964584350586
0, 9, 3, 27.51085472106934
0, 10, 0, 37.10491561889648
0, 10, 1, 27.53375816345215
0, 10, 2, 31.22705841064453
0, 10, 3, 29.02975273132324
0, 11, 0, 38.72607040405273
0, 11, 1, 37.16226577758789
0, 11, 2, 32.34885025024414
0, 11, 3, 29.59474945068359
0, 12, 0, 43.64231491088867
0, 12, 1, 39.793701171875
0, 12, 2, 36.1569709777832
0, 12, 3, 27.83593368530273
0, 13, 0, 34.08687591552734
0, 13, 1, 33.79536819458008
0, 13, 2, 29.78618621826172
0, 13, 3, 30.52293395996094
0, 14, 0, 46.49622344970703
0, 14, 1, 45.03703689575195
0, 14, 2, 31.20430374145508
0, 14, 3, 25.10937118530273
0, 15, 0, 42.11999893188477
0, 15, 1, 39.69530487060547
0, 15, 2, 38.28936004638672
0, 15, 3, 23.76937294006348
0, 16, 0, 39.31306457519531
0, 16, 1, 46.26410675048828
0, 16, 2, 34.3695182800293
0, 16, 3, 34.57839584350586
0, 17, 0, 50.3228759765625
0, 17, 1, 40.89228439331055
0, 17, 2, 31.58635330200195
0, 17, 3, 23.62607192993164
0, 18, 0, 42.16320037841797
0, 18, 1, 44.3243408203125
0, 18, 2, 33.1053352355957
0, 18, 3, 30.70968627929688
0, 19, 0, 40.89947128295898
0, 19, 1, 41.62371826171875
0, 19, 2, 36.62500762939453
0, 19, 3, 30.03482627868652
0, 20, 0, 41.47071075439453
0, 20, 1, 42.80346298217773
0, 20, 2, 40.56536865234375
0, 20, 3, 28.33839416503906
0, 21, 0, 46.1996955871582
0, 21, 1, 43.21731185913086
0, 21, 2, 41.41130065917969
0, 21, 3, 34.55928039550781
0, 22, 0, 45.80156707763672
0, 22, 1, 48.70315170288086
0, 22, 2, 37.01437759399414
0, 22, 3, 33.93125534057617
0, 23, 0, 48.33161163330078
0, 23, 1, 41.28628921508789
0, 23, 2, 36.86330032348633
0, 23, 3, 29.16065406799316
0, 24, 0, 59.70249938964844
0, 24, 1, 44.63153839111328
0, 24, 2, 38.98771286010742
0, 24, 3, 36.4274787902832
0, 25, 0, 55.23184204101562
0, 25, 1, 49.94437026977539
0, 25, 2, 49.46469116210938
0, 25, 3, 42.69012069702148
0, 26, 0, 48.34661483764648
0, 26, 1, 42.09719085693359
0, 26, 2, 35.86317825317383
0, 26, 3, 34.53801345825195
0, 27, 0, 51.43540573120117
0, 27, 1, 51.70420074462891
0, 27, 2, 48.04337310791016
0, 27, 3, 43.67774963378906
0, 28, 0, 56.49275207519531
0, 28, 1, 60.63228225708008
0, 28, 2, 47.68154525756836
0, 28, 3, 43.44095611572266
0, 29, 0, 54.62450408935547
0, 29, 1, 57.36415481567383
0, 29, 2, 49.87248611450195
0, 29, 3, 49.02591323852539
0, 30, 0, 44.29738235473633
0, 30, 1, 50.9195442199707
0, 30, 2, 49.9166259765625
0, 30, 3, 39.49817276000977
0, 31, 0, 59.32433319091797
0, 31, 1, 53.12496948242188
0, 31, 2, 47.42552185058594
0, 31, 3, 47.45016479492188
0, 32, 0, 53.07614898681641
0, 32, 1, 57.07880401611328
0, 32, 2, 49.31990432739258
0, 32, 3, 41.17375183105469
0, 33, 0, 49.1433219909668
0, 33, 1, 49.75775527954102
0, 33, 2, 37.39552688598633
0, 33, 3, 38.19259643554688
0, 34, 0, 56.53304290771484
0, 34, 1, 55.48648071289062
0, 34, 2, 50.13559341430664
0, 34, 3, 48.03219985961914
0, 35, 0, 64.17996978759766
0, 35, 1, 55.36551284790039
0, 35, 2, 57.91118621826172
0, 35, 3, 46.40166473388672
0, 36, 0, 49.81577301025391
0, 36, 1, 54.87997817993164
0, 36, 2, 47.44303131103516
0, 36, 3, 42.87815093994141
0, 37, 0, 47.53931045532227
0, 37, 1, 47.27010345458984
0, 37, 2, 49.85807800292969
0, 37, 3, 54.84514999389648
0, 38, 0, 57.05912017822266
0, 38, 1, 60.84466171264648
0, 38, 2, 54.44795989990234
0, 38, 3, 50.62471008300781
0, 39, 0, 61.3890266418457
0, 39, 1, 61.54463577270508
0, 39, 2, 50.36483383178711
0, 39, 3, 44.46915817260742
0, 40, 0, 56.24742126464844
0, 40, 1, 54.96949005126953
0, 40, 2, 57.21646881103516
0, 40, 3, 53.16015243530273
0, 41, 0, 68.0067138671875
0, 41, 1, 66.88745880126953
0, 41, 2, 74.18309020996094
0, 41, 3, 62.30015563964844
0, 42, 0, 77.3056640625
0, 42, 1, 63.38409423828125
0, 42, 2, 54.99337005615234
0, 42, 3, 50.37258529663086
0, 43, 0, 66.16832733154297
0, 43, 1, 67.56053161621094
0, 43, 2, 65.58885955810547
0, 43, 3, 50.07757186889648
0, 44, 0, 57.20065689086914
0, 44, 1, 53.68669891357422
0, 44, 2, 51.65906143188477
0, 44, 3, 50.30292129516602
0, 45, 0, 62.05711364746094
0, 45, 1, 61.63489532470703
0, 45, 2, 68.69377136230469
0, 45, 3, 51.02069473266602
0, 46, 0, 76.00630187988281
0, 46, 1, 82.76361083984375
0, 46, 2, 73.0416259765625
0, 46, 3, 68.97006225585938
0, 47, 0, 72.61056518554688
0, 47, 1, 64.02980041503906
0, 47, 2, 64.17127990722656
0, 47, 3, 55.887939453125
0, 48, 0, 81.08706665039062
0, 48, 1, 80.67113494873047
0, 48, 2, 79.67758941650391
0, 48, 3, 71.22383880615234
0, 49, 0, 78.33427429199219
0, 49, 1, 71.03664398193359
0, 49, 2, 75.24642944335938
0, 49, 3, 68.71990203857422
0, 50, 0, 67.60276031494141
0, 50, 1, 64.27803039550781
0, 50, 2, 64.70337677001953
0, 50, 3, 60.6876106262207
0, 51, 0, 81.24053192138672
0, 51, 1, 78.48728179931641
0, 51, 2, 69.86275482177734
0, 51, 3, 59.16240692138672
0, 52, 0, 73.88633728027344
0, 52, 1, 78.31410980224609
0, 52, 2, 83.32628631591797
0, 52, 3, 80.21408081054688
0, 53, 0, 89.05812835693359
0, 53, 1, 79.82034301757812
0, 53, 2, 79.72808074951172
0, 53, 3, 69.16107940673828
0, 54, 0, 79.85132598876953
0, 54, 1, 77.71900177001953
0, 54, 2, 86.27242279052734
0, 54, 3, 74.33102416992188
0, 55, 0, 87.36102294921875
0, 55, 1, 88.10161590576172
0, 55, 2, 78.13246154785156
0, 55, 3, 74.72393798828125
0, 56, 0, 81.12281799316406
0, 56, 1, 87.45327758789062
0, 56, 2, 76.09947967529297
0, 56, 3, 79.15310668945312
0, 57, 0, 95.65486907958984
0, 57, 1, 96.37552642822266
0, 57, 2, 91.61058807373047
0, 57, 3, 84.42606353759766
0, 58, 0, 84.67761993408203
0, 58, 1, 88.46522521972656
0, 58, 2, 89.89253997802734
0, 58, 3, 86.07070159912109
0, 59, 0, 95.35750579833984
0, 59, 1, 96.77526092529297
0, 59, 2, 100.0447769165039
0, 59, 3, 82.05017852783203
0, 60, 0, 89.51454162597656
0, 60, 1, 85.66977691650391
0, 60, 2, 88.05990600585938
0, 60, 3, 77.13589477539062
0, 61, 0, 97.70249938964844
0, 61, 1, 89.72673797607422
0, 61, 2, 81.3070068359375
0, 61, 3, 86.11747741699219
0, 62, 0, 98.44644927978516
0, 62, 1, 94.80729675292969
0, 62, 2, 97.0322265625
0, 62, 3, 81.96833038330078
0, 63, 0, 95.08820343017578
0, 63, 1, 101.2908782958984
0, 63, 2, 93.92081451416016
0, 63, 3, 90.83014678955078
0, 64, 0, 93.03586578369141
0, 64, 1, 101.5447692871094
0, 64, 2, 86.90635681152344
0, 64, 3, 85.18880462646484
0, 65, 0, 102.4641342163086
0, 65, 1, 103.5900268554688
0, 65, 2, 111.7799453735352
0, 65, 3, 90.48715972900391
0, 66, 0, 102.1917953491211
0, 66, 1, 100.6677780151367
0, 66, 2, 97.94523620605469
0, 66, 3, 88.76300811767578
0, 67, 0, 97.14987182617188
0, 67, 1, 84.02684783935547
0, 67, 2, 86.49420166015625
0, 67, 3, 73.65458679199219
0, 68, 0, 110.2626037597656
0, 68, 1, 109.7446136474609
0, 68, 2, 99.97620391845703
0, 68, 3, 88.40029144287109
0, 69, 0, 127.4328079223633
0, 69, 1, 115.965576171875
0, 69, 2, 123.8017807006836
0, 69, 3, 108.5511703491211
0, 70, 0, 120.2608489990234
0, 70, 1, 135.2356719970703
0, 70, 2, 133.0908966064453
0, 70, 3, 109.9662475585938
0, 71, 0, 115.3927230834961
0, 71, 1, 118.7783126831055
0, 71, 2, 111.9091339111328
0, 71, 3, 90.18189239501953
0, 72, 0, 133.4964904785156
0, 72, 1, 141.4098815917969
0, 72, 2, 124.6411361694336
0, 72, 3, 108.9123916625977
0, 73, 0, 112.8407363891602
0, 73, 1, 117.0607223510742
0, 73, 2, 102.9516754150391
0, 73, 3, 99.64633941650391
0, 74, 0, 107.9546585083008
0, 74, 1, 118.2785491943359
0, 74, 2, 110.6750793457031
0, 74, 3, 94.73886871337891
0, 75, 0, 118.2889251708984
0, 75, 1, 141.6551513671875
0, 75, 2, 121.8886413574219
0, 75, 3, 106.1062850952148
0, 76, 0, 130.6208190917969
0, 76, 1, 140.2904815673828
0, 76, 2, 138.2831420898438
0, 76, 3, 121.750114440918
0, 77, 0, 132.9240570068359
0, 77, 1, 145.7028503417969
0, 77, 2, 137.6808624267578
0, 77, 3, 128.5596313476562
0, 78, 0, 143.1488037109375
0, 78, 1, 144.7085723876953
0, 78, 2, 122.1206741333008
0, 78, 3, 118.0932312011719
0, 79, 0, 134.2035369873047
0, 79, 1, 140.4130554199219
0, 79, 2, 129.0638275146484
0, 79, 3, 126.1774978637695
0, 80, 0, 136.0263366699219
0, 80, 1, 144.6009826660156
0, 80, 2, 142.0287170410156
0, 80, 3, 125.3418045043945
0, 81, 0, 151.8370513916016
0, 81, 1, 164.0487823486328
0, 81, 2, 152.5536651611328
0, 81, 3, 133.6665802001953
0, 82, 0, 143.1559448242188
0, 82, 1, 165.1613159179688
0, 82, 2, 153.0573883056641
0, 82, 3, 134.9032440185547
0, 83, 0, 161.2962341308594
0, 83, 1, 165.21728515625
0, 83, 2, 154.4283752441406
0, 83, 3, 133.6425018310547
0, 84, 0, 148.3350372314453
0, 84, 1, 162.3170471191406
0, 84, 2, 164.1810913085938
0, 84, 3, 140.4497833251953
0, 85, 0, 153.6656646728516
0, 85, 1, 155.8264312744141
0, 85, 2, 148.7387390136719
0, 85, 3, 136.8277130126953
0, 86, 0, 154.9416656494141
0, 86, 1, 151.7930450439453
0, 86, 2, 164.6512603759766
0, 86, 3, 145.4111480712891
0, 87, 0, 139.8118133544922
0, 87, 1, 146.3518371582031
0, 87, 2, 158.81689453125
0, 87, 3, 144.8710021972656
0, 88, 0, 164.4160766601562
0, 88, 1, 166.3200531005859
0, 88, 2, 158.3179168701172
0, 88, 3, 157.5623779296875
0, 89, 0, 143.1661682128906
0, 89, 1, 144.2083587646484
0, 89, 2, 151.0981750488281
0, 89, 3, 129.5970916748047
0, 90, 0, 142.2244567871094
0, 90, 1, 155.3055114746094
0, 90, 2, 159.6959533691406
0, 90, 3, 140.2114868164062
0, 91, 0, 170.5966186523438
0, 91, 1, 184.9564056396484
0, 91, 2, 181.244140625
0, 91, 3, 169.1091766357422
0, 92, 0, 163.4374847412109
0, 92, 1, 165.279052734375
0, 92, 2, 177.3978271484375
0, 92, 3, 155.4675903320312
0, 93, 0, 175.9716186523438
0, 93, 1, 185.605224609375
0, 93, 2, 180.4436798095703
0, 93, 3, 168.4909515380859
0, 94, 0, 159.1405944824219
0, 94, 1, 184.8479461669922
0, 94, 2, 187.1304626464844
0, 94, 3, 172.6211853027344
0, 95, 0, 156.2735900878906
0, 95, 1, 159.6715698242188
0, 95, 2, 171.5719757080078
0, 95, 3, 157.1772155761719
0, 96, 0, 178.8404846191406
0, 96, 1, 180.4871673583984
0, 96, 2, 179.5345001220703
0, 96, 3, 171.1127777099609
0, 97, 0, 189.6297454833984
0, 97, 1, 199.1045684814453
0, 97, 2, 188.4775695800781
0, 97, 3, 168.9666595458984
0, 98, 0, 189.4627380371094
0, 98, 1, 196.5807952880859
0, 98, 2, 195.9046325683594
0, 98, 3, 181.9578552246094
0, 99, 0, 184.9384918212891
0, 99, 1, 204.2376861572266
0, 99, 2, 201.7631225585938
0, 99, 3, 184.8485870361328
0, 100, 0, 190.3955535888672
0, 100, 1, 196.7466735839844
0, 100, 2, 208.1757049560547
0, 100, 3, 193.5093078613281
0, 101, 0, 183.1919708251953
0, 101, 1, 200.2088165283203
0, 101, 2, 200.9141082763672
0, 101, 3, 189.4460906982422
0, 102, 0, 191.1337127685547
0, 102, 1, 198.1875457763672
0, 102, 2, 209.5219116210938
0, 102, 3, 196.0473175048828
0, 103, 0, 201.9338226318359
0, 103, 1, 212.1550750732422
0, 103, 2, 215.1858825683594
0, 103, 3, 199.8966217041016
0, 104, 0, 221.9912414550781
0, 104, 1, 231.1733245849609
0, 104, 2, 228.3529663085938
0, 104, 3, 216.2943572998047
0, 105, 0, 234.8626251220703
0, 105, 1, 243.33056640625
0, 105, 2, 227.6724700927734
0, 105, 3, 207.3173828125
0, 106, 0, 194.3086395263672
0, 106, 1, 209.4547119140625
0, 106, 2, 205.2346343994141
0, 106, 3, 184.0178527832031
0, 107, 0, 200.1632843017578
0, 107, 1, 215.0328216552734
0, 107, 2, 223.0895233154297
0, 107, 3, 224.8788757324219
0, 108, 0, 192.4329986572266
0, 108, 1, 210.9375
0, 108, 2, 206.7966461181641
0, 108, 3, 182.971923828125
0, 109, 0, 222.1575775146484
0, 109, 1, 220.1311950683594
0, 109, 2, 216.7146759033203
0, 109, 3, 206.0430297851562
0, 110, 0, 210.0256652832031
0, 110, 1, 201.8299560546875
0, 110, 2, 217.0516815185547
0, 110, 3, 200.2498321533203
0, 111, 0, 210.7027130126953
0, 111, 1, 233.9223785400391
0, 111, 2, 231.6610565185547
0, 111, 3, 214.4950561523438
0, 112, 0, 220.7902526855469
0, 112, 1, 241.6591186523438
0, 112, 2, 247.25634765625
0, 112, 3, 252.1809692382812
0, 113, 0, 238.0238494873047
0, 113, 1, 245.8026733398438
0, 113, 2, 235.1010284423828
0, 113, 3, 224.0288696289062
0, 114, 0, 243.7498168945312
0, 114, 1, 253.1458282470703
0, 114, 2, 257.4452819824219
0, 114, 3, 245.4574737548828
0, 115, 0, 247.83837890625
0, 115, 1, 250.6589508056641
0, 115, 2, 261.9340515136719
0, 115, 3, 248.810546875
0, 116, 0, 266.6486206054688
0, 116, 1, 288.5131225585938
0, 116, 2, 272.246337890625
0, 116, 3, 258.15185546875
0, 117, 0, 257.2575378417969
0, 117, 1, 281.4518432617188
0, 117, 2, 273.1262817382812
0, 117, 3, 262.8981018066406
0, 118, 0, 249.0234069824219
0, 118, 1, 265.0955200195312
0, 118, 2, 260.1415405273438
0, 118, 3, 241.9791717529297
0, 119, 0, 265.8346252441406
0, 119, 1, 279.6510009765625
0, 119, 2, 273.8092956542969
0, 119, 3, 249.0949554443359
0, 120, 0, 260.2009582519531
0, 120, 1, 260.0224914550781
0, 120, 2, 256.0289916992188
0, 120, 3, 240.0229034423828
0, 121, 0, 249.3792572021484
0, 121, 1, 276.8968505859375
0, 121, 2, 269.406494140625
0, 121, 3, 255.6533966064453
0, 122, 0, 241.2831726074219
0, 122, 1, 271.0856018066406
0, 122, 2, 262.2211303710938
0, 122, 3, 247.3607635498047
0, 123, 0, 258.6258850097656
0, 123, 1, 275.1566162109375
0, 123, 2, 279.0846252441406
0, 123, 3, 267.5025634765625
0, 124, 0, 265.7033996582031
0, 124, 1, 266.5479736328125
0, 124, 2, 272.3980712890625
0, 124, 3, 257.1336975097656
0, 125, 0, 254.4622192382812
0, 125, 1, 279.2776184082031
0, 125, 2, 277.1401672363281
0, 125, 3, 265.8354187011719
0, 126, 0, 274.7612609863281
0, 126, 1, 285.9332885742188
0, 126, 2, 293.2665710449219
0, 126, 3, 273.4052124023438
0, 127, 0, 277.3838500976562
0, 127, 1, 287.3801574707031
0, 127, 2, 304.0258483886719
0, 127, 3, 281.0264587402344
0, 128, 0, 275.6158752441406
0, 128, 1, 278.2043762207031
0, 128, 2, 298.1717224121094
0, 128, 3, 297.4418640136719
0, 129, 0, 264.7278137207031
0, 129, 1, 289.0244140625
0, 129, 2, 278.3941955566406
0, 129, 3, 286.5601501464844
0, 130, 0, 252.5268402099609
0, 130, 1, 265.474365234375
0, 130, 2, 279.677734375
0, 130, 3, 284.7996520996094
0, 131, 0, 303.710693359375
0, 131, 1, 326.77001953125
0, 131, 2, 338.5030212402344
0, 131, 3, 312.6502075195312
0, 132, 0, 278.3048095703125
0, 132, 1, 298.9362182617188
0, 132, 2, 324.6718139648438
0, 132, 3, 328.4971618652344
0, 133, 0, 291.3061218261719
0, 133, 1, 324.5189514160156
0, 133, 2, 314.4648742675781
0, 133, 3, 287.1244506835938
0, 134, 0, 292.3568115234375
0, 134, 1, 299.4089660644531
0, 134, 2, 311.9908752441406
0, 134, 3, 304.2267761230469
0, 135, 0, 302.0003051757812
0, 135, 1, 305.7540893554688
0, 135, 2, 326.4256286621094
0, 135, 3, 313.8463745117188
0, 136, 0, 286.3053588867188
0, 136, 1, 291.1383972167969
0, 136, 2, 305.2392578125
0, 136, 3, 290.4216003417969
0, 137, 0, 306.0516357421875
0, 137, 1, 335.6812744140625
0, 137, 2, 340.5346374511719
0, 137, 3, 325.0019836425781
0, 138, 0, 301.6861267089844
0, 138, 1, 315.5263061523438
0, 138, 2, 330.7280883789062
0, 138, 3, 329.7701416015625
0, 139, 0, 298.9457702636719
0, 139, 1, 313.4851379394531
0, 139, 2, 328.1034240722656
0, 139, 3, 305.5858764648438
0, 140, 0, 322.1737365722656
0, 140, 1, 341.0050964355469
0, 140, 2, 351.705322265625
0, 140, 3, 339.6794738769531
0, 141, 0, 303.8984680175781
0, 141, 1, 326.5168762207031
0, 141, 2, 333.8241882324219
0, 141, 3, 306.73388671875
0, 142, 0, 274.8561096191406
0, 142, 1, 294.8774719238281
0, 142, 2, 324.4363708496094
0, 142, 3, 305.9203796386719
0, 143, 0, 322.2233276367188
0, 143, 1, 319.0982360839844
0, 143, 2, 329.1131896972656
0, 143, 3, 328.7741394042969
0, 144, 0, 294.9518432617188
0, 144, 1, 321.1097717285156
0, 144, 2, 331.3538208007812
0, 144, 3, 322.5111694335938
0, 145, 0, 336.8383178710938
0, 145, 1, 346.9577941894531
0, 145, 2, 378.1285400390625
0, 145, 3, 336.1648254394531
0, 146, 0, 312.5193176269531
0, 146, 1, 334.8238830566406
0, 146, 2, 345.5277099609375
0, 146, 3, 337.0932006835938
0, 147, 0, 298.1735229492188
0, 147, 1, 317.6823120117188
0, 147, 2, 320.6551818847656
0, 147, 3, 309.8125305175781
0, 148, 0, 319.9484558105469
0, 148, 1, 330.8975219726562
0, 148, 2, 322.9053039550781
0, 148, 3, 335.4175720214844
0, 149, 0, 306.1062316894531
0, 149, 1, 339.6480102539062
0, 149, 2, 372.5335388183594
0, 149, 3, 359.2886047363281
0, 150, 0, 304.6861877441406
0, 150, 1, 323.9825744628906
0, 150, 2, 318.502685546875
0, 150, 3, 321.4937133789062
0, 151, 0, 291.5309143066406
0, 151, 1, 328.2341003417969
0, 151, 2, 322.5996398925781
0, 151, 3, 308.4954833984375
0, 152, 0, 301.739501953125
0, 152, 1, 307.4423522949219
0, 152, 2, 323.8314819335938
0, 152, 3, 326.0055236816406
0, 153, 0, 288.3663635253906
0, 153, 1, 292.9636535644531
0, 153, 2, 307.2651672363281
0, 153, 3, 296.2572937011719
0, 154, 0, 291.4189147949219
0, 154, 1, 315.5762634277344
0, 154, 2, 308.9379272460938
0, 154, 3, 308.4205932617188
0, 155, 0, 282.8129577636719
0, 155, 1, 306.8965759277344
0, 155, 2, 324.4769287109375
0, 155, 3, 316.8841247558594
0, 156, 0, 272.8033447265625
0, 156, 1, 292.4622192382812
0, 156, 2, 303.9729919433594
0, 156, 3, 286.3999633789062
0, 157, 0, 279.5896911621094
0, 157, 1, 287.6317749023438
0, 157, 2, 286.7928771972656
0, 157, 3, 269.050048828125
0, 158, 0, 266.00341796875
0, 158, 1, 280.1780090332031
0, 158, 2, 270.9884338378906
0, 158, 3, 277.8870544433594
0, 159, 0, 259.9281616210938
0, 159, 1, 293.0706481933594
0, 159, 2, 300.541015625
0, 159, 3, 276.3150939941406
0, 160, 0, 248.9844818115234
0, 160, 1, 249.8257293701172
0, 160, 2, 261.3757934570312
0, 160, 3, 241.0591430664062
0, 161, 0, 224.0456085205078
0, 161, 1, 248.5216979980469
0, 161, 2, 262.8377990722656
0, 161, 3, 262.3393249511719
0, 162, 0, 207.7654876708984
0, 162, 1, 227.3580169677734
0, 162, 2, 230.8184814453125
0, 162, 3, 219.7015380859375
0, 163, 0, 225.6086578369141
0, 163, 1, 236.4462585449219
0, 163, 2, 240.5547027587891
0, 163, 3, 230.3182678222656
0, 164, 0, 214.1915893554688
0, 164, 1, 217.7119140625
0, 164, 2, 225.9878845214844
0, 164, 3, 200.4542083740234
0, 165, 0, 189.79833984375
0, 165, 1, 196.3582611083984
0, 165, 2, 197.7036743164062
0, 165, 3, 158.6415100097656
0, 166, 0, 180.4559478759766
0, 166, 1, 197.6843414306641
0, 166, 2, 185.6332244873047
0, 166, 3, 184.3556671142578
0, 167, 0, 161.4698486328125
0, 167, 1, 170.82177734375
0, 167, 2, 182.7263336181641
0, 167, 3, 167.4057464599609
0, 168, 0, 142.4747314453125
0, 168, 1, 150.9776000976562
0, 168, 2, 150.8840026855469
0, 168, 3, 138.8821258544922
0, 169, 0, 155.9884643554688
0, 169, 1, 150.3140716552734
0, 169, 2, 161.8664398193359
0, 169, 3, 144.3932647705078
0, 170, 0, 157.8892059326172
0, 170, 1, 153.9035491943359
0, 170, 2, 155.3913116455078
0, 170, 3, 143.3986206054688
0, 171, 0, 126.3975219726562
0, 171, 1, 136.1506805419922
0, 171, 2, 135.3581695556641
0, 171, 3, 129.9908142089844
0, 172, 0, 120.7161560058594
0, 172, 1, 137.9743347167969
0, 172, 2, 125.8827819824219
0, 172, 3, 106.5131454467773
0, 173, 0, 119.5055694580078
0, 173, 1, 120.5168838500977
0, 173, 2, 125.5044631958008
0, 173, 3, 118.4762725830078
0, 174, 0, 113.4946746826172
0, 174, 1, 107.7267379760742
0, 174, 2, 115.1135025024414
0, 174, 3, 112.8374176025391
0, 175, 0, 110.1614990234375
0, 175, 1, 108.5815887451172
0, 175, 2, 107.2626495361328
0, 175, 3, 102.4396896362305
0, 176, 0, 95.57402801513672
0, 176, 1, 95.03140258789062
0, 176, 2, 93.62612152099609
0, 176, 3, 87.938720703125
0, 177, 0, 97.78744506835938
0, 177, 1, 96.73659515380859
0, 177, 2, 95.88918304443359
0, 177, 3, 96.93657684326172
0, 178, 0, 90.55042266845703
0, 178, 1, 90.02490234375
0, 178, 2, 88.57569885253906
0, 178, 3, 85.77845001220703
0, 179, 0, 82.06359100341797
0, 179, 1, 95.52030944824219
0, 179, 2, 90.35984802246094
0, 179, 3, 78.96678161621094
0, 180, 0, 68.69766235351562
0, 180, 1, 69.70562744140625
0, 180, 2, 73.77542114257812
0, 180, 3, 59.8581428527832
0, 181, 0, 78.01676177978516
0, 181, 1, 72.56800079345703
0, 181, 2, 58.39241409301758
0, 181, 3, 53.41875839233398
0, 182, 0, 66.46385192871094
0, 182, 1, 72.79281616210938
0, 182, 2, 63.32878112792969
0, 182, 3, 62.47093200683594
0, 183, 0, 73.24467468261719
0, 183, 1, 75.88159942626953
0, 183, 2, 69.84267425537109
0, 183, 3, 57.8969841003418
0, 184, 0, 72.05147552490234
0, 184, 1, 69.95833587646484
0, 184, 2, 69.12068176269531
0, 184, 3, 61.44943618774414
0, 185, 0, 74.27037811279297
0, 185, 1, 67.06540679931641
0, 185, 2, 53.99578094482422
0, 185, 3, 47.90805816650391
0, 186, 0, 60.30635070800781
0, 186, 1, 55.98933029174805
0, 186, 2, 50.65180206298828
0, 186, 3, 50.60845184326172
0, 187, 0, 61.19747924804688
0, 187, 1, 63.67748260498047
0, 187, 2, 55.36634826660156
0, 187, 3, 52.29648208618164
0, 188, 0, 72.13374328613281
0, 188, 1, 57.65745162963867
0, 188, 2, 58.74800109863281
0, 188, 3, 48.41969299316406
0, 189, 0, 71.3421630859375
0, 189, 1, 61.42863845825195
0, 189, 2, 67.95481109619141
0, 189, 3, 55.468505859375
0, 190, 0, 46.87504577636719
0, 190, 1, 41.95193099975586
0, 190, 2, 41.00913619995117
0, 190, 3, 39.51006698608398
0, 191, 0, 54.33975601196289
0, 191, 1, 46.33353042602539
0, 191, 2, 45.30650329589844
0, 191, 3, 36.49275970458984
0, 192, 0, 56.59364318847656
0, 192, 1, 43.48989486694336
0, 192, 2, 44.40537643432617
0, 192, 3, 43.93245697021484
0, 193, 0, 55.22292709350586
0, 193, 1, 60.6259880065918
0, 193, 2, 49.05002212524414
0, 193, 3, 38.30007934570312
0, 194, 0, 55.04279327392578
0, 194, 1, 49.46785354614258
0, 194, 2, 41.89883422851562
0, 194, 3, 46.46771240234375
0, 195, 0, 48.11118316650391
0, 195, 1, 44.67386627197266
0, 195, 2, 44.76006317138672
0, 195, 3, 41.88800430297852
0, 196, 0, 50.95304489135742
0, 196, 1, 44.25229644775391
0, 196, 2, 39.68376541137695
0, 196, 3, 32.10886764526367
0, 197, 0, 51.50861358642578
0, 197, 1, 46.68141937255859
0, 197, 2, 44.1413688659668
0, 197, 3, 40.21321105957031
0, 198, 0, 50.46926116943359
0, 198, 1, 46.24380111694336
0, 198, 2, 31.08896636962891
0, 198, 3, 30.72890281677246
0, 199, 0, 47.42465972900391
0, 199, 1, 42.07072448730469
0, 199, 2, 43.47356796264648
0, 199, 3, 34.33901214599609
0, 200, 0, 48.56510925292969
0, 200, 1, 43.71869659423828
0, 200, 2, 39.87168502807617
0, 200, 3, 35.80849838256836
0, 201, 0, 52.44466018676758
0, 201, 1, 47.86769866943359
0, 201, 2, 43.9780158996582
0, 201, 3, 40.88802719116211
0, 202, 0, 47.78600692749023
0, 202, 1, 44.93985748291016
0, 202, 2, 48.01697540283203
0, 202, 3, 39.67166900634766
0, 203, 0, 49.07178497314453
0, 203, 1, 44.50465393066406
0, 203, 2, 45.42571640014648
0, 203, 3, 45.10749816894531
0, 204, 0, 45.36205673217773
0, 204, 1, 47.37949752807617
0, 204, 2, 49.01219940185547
0, 204, 3, 43.68692398071289
0, 205, 0, 52.09103012084961
0, 205, 1, 52.44643402099609
0, 205, 2, 49.72842788696289
0, 205, 3, 45.21306228637695
0, 206, 0, 35.38070678710938
0, 206, 1, 34.08478164672852
0, 206, 2, 37.15248870849609
0, 206, 3, 33.05650329589844
0, 207, 0, 42.58840942382812
0, 207, 1, 36.78871536254883
0, 207, 2, 32.81544876098633
0, 207, 3, 28.93915176391602
0, 208, 0, 41.38767623901367
0, 208, 1, 39.77766418457031
0, 208, 2, 35.72568893432617
0, 208, 3, 29.13055992126465
0, 209, 0, 45.60018157958984
0, 209, 1, 43.16068649291992
0, 209, 2, 38.42771530151367
0, 209, 3, 28.05312347412109
0, 210, 0, 42.28740692138672
0, 210, 1, 38.36357498168945
0, 210, 2, 36.3499641418457
0, 210, 3, 36.28459167480469
0, 211, 0, 49.73249435424805
0, 211, 1, 44.41535186767578
0, 211, 2, 36.07043075561523
0, 211, 3, 33.27170181274414
0, 212, 0, 51.07791900634766
0, 212, 1, 44.0671272277832
0, 212, 2, 46.82155990600586
0, 212, 3, 44.30857086181641
0, 213, 0, 50.84535598754883
0, 213, 1, 54.07724380493164
0, 213, 2, 37.35337448120117
0, 213, 3, 40.29654693603516
0, 214, 0, 41.29704284667969
0, 214, 1, 38.44931793212891
0, 214, 2, 37.14613342285156
0, 214, 3, 35.12677383422852
0, 215, 0, 43.87031173706055
0, 215, 1, 42.08123016357422
0, 215, 2, 38.12492752075195
0, 215, 3, 29.14925384521484
0, 216, 0, 48.4315071105957
0, 216, 1, 41.45409774780273
0, 216, 2, 40.33938217163086
0, 216, 3, 41.81094741821289
0, 217, 0, 44.6163444519043
0, 217, 1, 36.55483245849609
0, 217, 2, 33.7448616027832
0, 217, 3, 34.42324447631836
0, 218, 0, 39.54959487915039
0, 218, 1, 32.63937377929688
0, 218, 2, 34.40959930419922
0, 218, 3, 37.36656188964844
0, 219, 0, 46.28678512573242
0, 219, 1, 42.06699371337891
0, 219, 2, 36.1280403137207
0, 219, 3, 37.79570007324219
0, 220, 0, 31.05329513549805
0, 220, 1, 33.0996208190918
0, 220, 2, 34.64191436767578
0, 220, 3, 30.40542984008789
0, 221, 0, 42.62831878662109
0, 221, 1, 37.13810729980469
0, 221, 2, 31.56274223327637
0, 221, 3, 28.84443855285645
0, 222, 0, 48.1003303527832
0, 222, 1, 47.72305297851562
0, 222, 2, 44.41861343383789
0, 222, 3, 48.57217788696289
0, 223, 0, 45.82688140869141
0, 223, 1, 50.53646087646484
0, 223, 2, 40.46249389648438
0, 223, 3, 36.58433151245117
0, 224, 0, 42.55136871337891
0, 224, 1, 37.0759391784668
0, 224, 2, 39.67221069335938
0, 224, 3, 33.35079956054688
0, 225, 0, 48.14279174804688
0, 225, 1, 48.04410934448242
0, 225, 2, 39.25456237792969
0, 225, 3, 45.40921401977539
0, 226, 0, 36.00806427001953
0, 226, 1, 34.25159072875977
0, 226, 2, 38.79839324951172
0, 226, 3, 38.98778915405273
0, 227, 0, 44.51065063476562
0, 227, 1, 39.41232681274414
0, 227, 2, 35.62894821166992
0, 227, 3, 39.18503570556641
0, 228, 0, 38.44900894165039
0, 228, 1, 35.52172470092773
0, 228, 2, 37.25970077514648
0, 228, 3, 38.54037857055664
0, 229, 0, 51.29677581787109
0, 229, 1, 46.97547149658203
0, 229, 2, 39.84063339233398
0, 229, 3, 37.59219360351562
0, 230, 0, 47.66322708129883
0, 230, 1, 44.5989875793457
0, 230, 2, 40.0573616027832
0, 230, 3, 36.1546516418457
0, 231, 0, 41.08681106567383
0, 231, 1, 36.83634948730469
0, 231, 2, 35.92747116088867
0, 231, 3, 34.4046516418457
0, 232, 0, 42.24308013916016
0, 232, 1, 39.89171981811523
0, 232, 2, 42.47031402587891
0, 232, 3, 40.44460296630859
0, 233, 0, 48.01393127441406
0, 233, 1, 43.95968627929688
0, 233, 2, 39.83422088623047
0, 233, 3, 33.89458847045898
0, 234, 0, 45.75182342529297
0, 234, 1, 43.35880279541016
0, 234, 2, 50.10828399658203
0, 234, 3, 42.44142532348633
0, 235, 0, 52.96062088012695
0, 235, 1, 48.54573440551758
0, 235, 2, 45.48522567749023
0, 235, 3, 46.36408615112305
0, 236, 0, 55.78490447998047
0, 236, 1, 49.65218734741211
0, 236, 2, 55.36682891845703
0, 236, 3, 50.10214614868164
0, 237, 0, 56.92474365234375
0, 237, 1, 54.76880264282227
0, 237, 2, 60.19373321533203
0, 237, 3, 53.24691009521484
0, 238, 0, 55.50515747070312
0, 238, 1, 49.51470565795898
0, 238, 2, 49.72186279296875
0, 238, 3, 50.27799606323242
0, 239, 0, 64.35379791259766
0, 239, 1, 59.38407135009766
0, 239, 2, 52.79264068603516
0, 239, 3, 54.22208023071289
1, 0, 0, 30.23352813720703
1, 0, 1, 29.51322364807129
1, 0, 2, 29.99463081359863
1, 0, 3, 22.21476364135742
1, 1, 0, 38.72745513916016
1, 1, 1, 35.64223480224609
1, 1, 2, 25.2661304473877
1, 1, 3, 20.35715866088867
1, 2, 0, 19.64862823486328
1, 2, 1, 26.10108757019043
1, 2, 2, 17.87431907653809
1, 2, 3, 17.5322380065918
1, 3, 0, 33.45603179931641
1, 3, 1, 31.24435806274414
1, 3, 2, 31.24602127075195
1, 3, 3, 19.49877548217773
1, 4, 0, 33.50752639770508
1, 4, 1, 31.89376258850098
1, 4, 2, 25.23542594909668
1, 4, 3, 27.81361389160156
1, 5, 0, 37.68332672119141
1, 5, 1, 32.46943283081055
1, 5, 2, 28.98210144042969
1, 5, 3, 18.60221862792969
1, 6, 0, 36.68755340576172
1, 6, 1, 26.29133605957031
1, 6, 2, 29.38476753234863
1, 6, 3, 24.52689933776855
1, 7, 0, 25.68143653869629
1, 7, 1, 30.45012283325195
1, 7, 2, 31.24024772644043
1, 7, 3, 31.5057258605957
1, 8, 0, 40.47931289672852
1, 8, 1, 45.54578399658203
1, 8, 2, 30.82525825500488
1, 8, 3, 19.0835132598877
1, 9, 0, 36.70747756958008
1, 9, 1, 31.86920928955078
1, 9, 2, 32.41596221923828
1, 9, 3, 24.0417537689209
1, 10, 0, 35.19875717163086
1, 10, 1, 37.42336273193359
1, 10, 2, 33.11410522460938
1, 10, 3, 28.75473403930664
1, 11, 0, 40.45026779174805
1, 11, 1, 37.98292541503906
1, 11, 2, 32.09289932250977
1, 11, 3, 27.0516414642334
1, 12, 0, 39.36845397949219
1, 12, 1, 37.3862190246582
1, 12, 2, 30.00110626220703
1, 12, 3, 29.17688751220703
1, 13, 0, 39.94119262695312
1, 13, 1, 42.45817565917969
1, 13, 2, 36.22196960449219
1, 13, 3, 28.33652496337891
1, 14, 0, 37.2258415222168
1, 14, 1, 40.45950317382812
1, 14, 2, 37.64522933959961
1, 14, 3, 32.51461791992188
1, 15, 0, 42.92424011230469
1, 15, 1, 38.66957473754883
1, 15, 2, 37.55590438842773
1, 15, 3, 25.95194053649902
1, 16, 0, 47.02021789550781
1, 16, 1, 45.53622436523438
1, 16, 2, 38.05574798583984
1, 16, 3, 33.18872451782227
1, 17, 0, 35.59723281860352
1, 17, 1, 33.42910766601562
1, 17, 2, 30.35248184204102
1, 17, 3, 37.97257614135742
1, 18, 0, 41.68653106689453
1, 18, 1, 40.31410598754883
1, 18, 2, 39.27070236206055
1, 18, 3, 38.36346435546875
1, 19, 0, 44.07908630371094
1, 19, 1, 50.60710144042969
1, 19, 2, 49.50873947143555
1, 19, 3, 45.56648254394531
1, 20, 0, 52.91735458374023
1, 20, 1, 46.75685501098633
1, 20, 2, 45.09823608398438
1, 20, 3, 31.94611740112305
1, 21, 0, 43.30432891845703
1, 21, 1, 43.19657897949219
1, 21, 2, 42.1225471496582
1, 21, 3, 34.00366592407227
1, 22, 0, 48.94085693359375
1, 22, 1, 43.624267578125
1, 22, 2, 42.56513595581055
