# TOPAS Version: 3.6
# Parameter File: TSEPVC_AP_spoiler_gn.txt
# Results for scorer EDeposit
# Scored in component: PVC
# X in 120 bins of 1 cm
# Y in 240 bins of 1 cm
# Z in 4 bins of 0.2 cm
# EnergyDeposit ( MeV ) : Sum   
0, 0, 0, 24.75581741333008
0, 0, 1, 24.23085784912109
0, 0, 2, 27.21927261352539
0, 0, 3, 18.7214412689209
0, 1, 0, 37.19395065307617
0, 1, 1, 31.20186233520508
0, 1, 2, 20.22533798217773
0, 1, 3, 18.45930480957031
0, 2, 0, 34.92961120605469
0, 2, 1, 27.21199607849121
0, 2, 2, 18.75222778320312
0, 2, 3, 23.49833488464355
0, 3, 0, 34.56756591796875
0, 3, 1, 27.19992637634277
0, 3, 2, 17.92141532897949
0, 3, 3, 14.8380298614502
0, 4, 0, 41.14440536499023
0, 4, 1, 42.49660110473633
0, 4, 2, 37.97827529907227
0, 4, 3, 31.71467399597168
0, 5, 0, 30.68302536010742
0, 5, 1, 28.0909595489502
0, 5, 2, 21.86862182617188
0, 5, 3, 22.55716133117676
0, 6, 0, 26.5459098815918
0, 6, 1, 25.53461265563965
0, 6, 2, 23.93244552612305
0, 6, 3, 22.89701080322266
0, 7, 0, 36.54334259033203
0, 7, 1, 32.45106506347656
0, 7, 2, 28.28140449523926
0, 7, 3, 24.4329719543457
0, 8, 0, 35.37043380737305
0, 8, 1, 31.99889755249023
0, 8, 2, 28.65210914611816
0, 8, 3, 25.8015308380127
0, 9, 0, 26.53009986877441
0, 9, 1, 36.98622131347656
0, 9, 2, 29.28805732727051
0, 9, 3, 23.47209930419922
0, 10, 0, 36.50811004638672
0, 10, 1, 34.683349609375
0, 10, 2, 34.89496612548828
0, 10, 3, 22.1094799041748
0, 11, 0, 35.25656890869141
0, 11, 1, 31.96597862243652
0, 11, 2, 25.20423889160156
0, 11, 3, 24.11815071105957
0, 12, 0, 34.03107833862305
0, 12, 1, 37.36043930053711
0, 12, 2, 24.85301780700684
0, 12, 3, 26.63748359680176
0, 13, 0, 38.28124237060547
0, 13, 1, 42.4510383605957
0, 13, 2, 31.68147659301758
0, 13, 3, 27.36929130554199
0, 14, 0, 45.0164680480957
0, 14, 1, 49.35872650146484
0, 14, 2, 31.37583923339844
0, 14, 3, 25.63155937194824
0, 15, 0, 39.76985168457031
0, 15, 1, 34.92889404296875
0, 15, 2, 37.02768325805664
0, 15, 3, 31.22517585754395
0, 16, 0, 33.01985931396484
0, 16, 1, 30.18227005004883
0, 16, 2, 28.35362815856934
0, 16, 3, 23.92677307128906
0, 17, 0, 47.9076042175293
0, 17, 1, 47.93831634521484
0, 17, 2, 35.78424453735352
0, 17, 3, 35.32802200317383
0, 18, 0, 44.70558547973633
0, 18, 1, 39.74660491943359
0, 18, 2, 36.53265380859375
0, 18, 3, 29.70541191101074
0, 19, 0, 44.3477783203125
0, 19, 1, 44.78383255004883
0, 19, 2, 38.24584579467773
0, 19, 3, 28.95310974121094
0, 20, 0, 48.943115234375
0, 20, 1, 54.27163696289062
0, 20, 2, 48.72883987426758
0, 20, 3, 34.92985153198242
0, 21, 0, 53.13435363769531
0, 21, 1, 51.23948669433594
0, 21, 2, 43.58292770385742
0, 21, 3, 40.17720413208008
0, 22, 0, 45.54810333251953
0, 22, 1, 42.36473846435547
0, 22, 2, 44.63527679443359
0, 22, 3, 33.77390670776367
0, 23, 0, 52.8699951171875
0, 23, 1, 49.69541549682617
0, 23, 2, 47.940673828125
0, 23, 3, 37.41044235229492
0, 24, 0, 41.25173568725586
0, 24, 1, 40.00293350219727
0, 24, 2, 41.78102111816406
0, 24, 3, 34.0755615234375
0, 25, 0, 46.56738662719727
0, 25, 1, 53.11978149414062
0, 25, 2, 44.14115142822266
0, 25, 3, 38.87836074829102
0, 26, 0, 57.08173751831055
0, 26, 1, 52.19411468505859
0, 26, 2, 42.80519104003906
0, 26, 3, 40.42006301879883
0, 27, 0, 61.21625900268555
0, 27, 1, 55.66502380371094
0, 27, 2, 47.09976577758789
0, 27, 3, 37.61079025268555
0, 28, 0, 44.60260391235352
0, 28, 1, 41.13785552978516
0, 28, 2, 38.75398635864258
0, 28, 3, 31.59518241882324
0, 29, 0, 41.40457916259766
0, 29, 1, 35.53145980834961
0, 29, 2, 38.2397575378418
0, 29, 3, 27.20666122436523
0, 30, 0, 47.52844619750977
0, 30, 1, 56.03395080566406
0, 30, 2, 49.38180541992188
0, 30, 3, 40.31521606445312
0, 31, 0, 58.12495422363281
0, 31, 1, 61.88976669311523
0, 31, 2, 51.09197616577148
0, 31, 3, 38.96588897705078
0, 32, 0, 62.38712692260742
0, 32, 1, 57.77994155883789
0, 32, 2, 55.3829345703125
0, 32, 3, 43.87209701538086
0, 33, 0, 65.09577941894531
0, 33, 1, 65.48933410644531
0, 33, 2, 60.42721939086914
0, 33, 3, 57.48393630981445
0, 34, 0, 51.5073356628418
0, 34, 1, 51.30477523803711
0, 34, 2, 52.67754364013672
0, 34, 3, 41.7365608215332
0, 35, 0, 53.48508834838867
0, 35, 1, 51.81845092773438
0, 35, 2, 53.26250076293945
0, 35, 3, 58.26359939575195
0, 36, 0, 68.13188171386719
0, 36, 1, 62.12730026245117
0, 36, 2, 56.91719436645508
0, 36, 3, 49.28889465332031
0, 37, 0, 60.92278289794922
0, 37, 1, 65.00209808349609
0, 37, 2, 68.17790985107422
0, 37, 3, 63.23039245605469
0, 38, 0, 66.89896392822266
0, 38, 1, 56.80746078491211
0, 38, 2, 55.69220352172852
0, 38, 3, 51.24891662597656
0, 39, 0, 60.17905807495117
0, 39, 1, 59.24583053588867
0, 39, 2, 54.63217926025391
0, 39, 3, 47.32425689697266
0, 40, 0, 60.31023025512695
0, 40, 1, 64.05020141601562
0, 40, 2, 52.20864486694336
0, 40, 3, 48.65366363525391
0, 41, 0, 78.50599670410156
0, 41, 1, 76.79261779785156
0, 41, 2, 80.09874725341797
0, 41, 3, 60.80625534057617
0, 42, 0, 66.683349609375
0, 42, 1, 61.05274963378906
0, 42, 2, 51.21363830566406
0, 42, 3, 46.76650238037109
0, 43, 0, 67.80205535888672
0, 43, 1, 69.71664428710938
0, 43, 2, 53.43869018554688
0, 43, 3, 44.99662017822266
0, 44, 0, 56.5564079284668
0, 44, 1, 62.24186325073242
0, 44, 2, 59.90107345581055
0, 44, 3, 52.53591537475586
0, 45, 0, 70.05841827392578
0, 45, 1, 75.62372589111328
0, 45, 2, 64.64532470703125
0, 45, 3, 64.14088439941406
0, 46, 0, 83.68940734863281
0, 46, 1, 85.52010345458984
0, 46, 2, 68.90334320068359
0, 46, 3, 53.08335113525391
0, 47, 0, 76.1514892578125
0, 47, 1, 75.30128479003906
0, 47, 2, 70.49933624267578
0, 47, 3, 76.58354187011719
0, 48, 0, 74.11412048339844
0, 48, 1, 77.51016998291016
0, 48, 2, 74.52542114257812
0, 48, 3, 63.73578262329102
0, 49, 0, 68.04550170898438
0, 49, 1, 69.33373260498047
0, 49, 2, 68.55848693847656
0, 49, 3, 55.25416564941406
0, 50, 0, 62.14884567260742
0, 50, 1, 73.08716583251953
0, 50, 2, 68.15290069580078
0, 50, 3, 59.77646636962891
0, 51, 0, 79.91111755371094
0, 51, 1, 75.76829528808594
0, 51, 2, 77.16629028320312
0, 51, 3, 69.76024627685547
0, 52, 0, 71.16744995117188
0, 52, 1, 78.5634765625
0, 52, 2, 78.80150604248047
0, 52, 3, 68.63007354736328
0, 53, 0, 89.12666320800781
0, 53, 1, 90.159912109375
0, 53, 2, 84.53094482421875
0, 53, 3, 75.34310913085938
0, 54, 0, 86.23298645019531
0, 54, 1, 82.95664215087891
0, 54, 2, 74.59298706054688
0, 54, 3, 59.58187866210938
0, 55, 0, 92.27164459228516
0, 55, 1, 82.07742309570312
0, 55, 2, 82.62976837158203
0, 55, 3, 77.19026184082031
0, 56, 0, 72.97922515869141
0, 56, 1, 75.31056976318359
0, 56, 2, 77.57036590576172
0, 56, 3, 75.80535125732422
0, 57, 0, 83.27359771728516
0, 57, 1, 85.85542297363281
0, 57, 2, 75.98052978515625
0, 57, 3, 72.02664947509766
0, 58, 0, 91.20504760742188
0, 58, 1, 85.08395385742188
0, 58, 2, 82.47849273681641
0, 58, 3, 72.76824188232422
0, 59, 0, 87.20540618896484
0, 59, 1, 89.48136138916016
0, 59, 2, 93.60443878173828
0, 59, 3, 85.66519927978516
0, 60, 0, 94.36927795410156
0, 60, 1, 85.7484130859375
0, 60, 2, 89.50531005859375
0, 60, 3, 83.21276092529297
0, 61, 0, 84.47629547119141
0, 61, 1, 88.82804107666016
0, 61, 2, 84.44409942626953
0, 61, 3, 77.91453552246094
0, 62, 0, 106.3834838867188
0, 62, 1, 108.5060501098633
0, 62, 2, 103.9754791259766
0, 62, 3, 76.68622589111328
0, 63, 0, 90.07205963134766
0, 63, 1, 97.97987365722656
0, 63, 2, 95.03278350830078
0, 63, 3, 72.85355377197266
0, 64, 0, 102.295524597168
0, 64, 1, 97.00477600097656
0, 64, 2, 101.2370910644531
0, 64, 3, 84.52722930908203
0, 65, 0, 112.0668106079102
0, 65, 1, 101.8658905029297
0, 65, 2, 101.2781448364258
0, 65, 3, 93.60824584960938
0, 66, 0, 104.0204086303711
0, 66, 1, 103.8249206542969
0, 66, 2, 104.3097457885742
0, 66, 3, 79.94532775878906
0, 67, 0, 96.20207977294922
0, 67, 1, 100.3575286865234
0, 67, 2, 90.59766387939453
0, 67, 3, 93.53748321533203
0, 68, 0, 98.76906585693359
0, 68, 1, 104.2208633422852
0, 68, 2, 95.4224853515625
0, 68, 3, 87.75177764892578
0, 69, 0, 102.6421737670898
0, 69, 1, 108.5588912963867
0, 69, 2, 101.2567443847656
0, 69, 3, 98.42218780517578
0, 70, 0, 101.6097946166992
0, 70, 1, 95.52623748779297
0, 70, 2, 99.23973083496094
0, 70, 3, 90.46421813964844
0, 71, 0, 119.2612609863281
0, 71, 1, 126.8069686889648
0, 71, 2, 120.0399856567383
0, 71, 3, 111.4749450683594
0, 72, 0, 110.8513412475586
0, 72, 1, 120.7711029052734
0, 72, 2, 104.6670532226562
0, 72, 3, 87.20817565917969
0, 73, 0, 108.7463607788086
0, 73, 1, 121.998908996582
0, 73, 2, 117.7623291015625
0, 73, 3, 116.9871292114258
0, 74, 0, 109.4423141479492
0, 74, 1, 124.2772445678711
0, 74, 2, 117.786750793457
0, 74, 3, 104.5115737915039
0, 75, 0, 138.0923767089844
0, 75, 1, 151.8244018554688
0, 75, 2, 132.3636322021484
0, 75, 3, 118.2812271118164
0, 76, 0, 117.6134262084961
0, 76, 1, 122.8595199584961
0, 76, 2, 115.1272811889648
0, 76, 3, 115.1110610961914
0, 77, 0, 133.8441467285156
0, 77, 1, 143.337646484375
0, 77, 2, 135.3750915527344
0, 77, 3, 114.4196472167969
0, 78, 0, 126.450080871582
0, 78, 1, 124.8077087402344
0, 78, 2, 133.6597900390625
0, 78, 3, 113.1442031860352
0, 79, 0, 132.9751434326172
0, 79, 1, 131.5893096923828
0, 79, 2, 126.7508850097656
0, 79, 3, 122.2618408203125
0, 80, 0, 119.2552719116211
0, 80, 1, 113.6793365478516
0, 80, 2, 113.4425888061523
0, 80, 3, 109.3370819091797
0, 81, 0, 123.1100692749023
0, 81, 1, 129.9515686035156
0, 81, 2, 132.9398345947266
0, 81, 3, 120.8826675415039
0, 82, 0, 138.7354736328125
0, 82, 1, 137.6080169677734
0, 82, 2, 137.0621185302734
0, 82, 3, 134.6663818359375
0, 83, 0, 158.3324279785156
0, 83, 1, 163.0583648681641
0, 83, 2, 149.0827331542969
0, 83, 3, 140.8190307617188
0, 84, 0, 151.1102142333984
0, 84, 1, 162.116943359375
0, 84, 2, 146.6111755371094
0, 84, 3, 146.8130798339844
0, 85, 0, 150.4543914794922
0, 85, 1, 156.2778472900391
0, 85, 2, 171.2065277099609
0, 85, 3, 147.6341705322266
0, 86, 0, 144.6318664550781
0, 86, 1, 170.4980621337891
0, 86, 2, 171.7793121337891
0, 86, 3, 164.0702056884766
0, 87, 0, 164.5337982177734
0, 87, 1, 165.9714202880859
0, 87, 2, 153.9069061279297
0, 87, 3, 134.5621490478516
0, 88, 0, 154.4340972900391
0, 88, 1, 171.0666961669922
0, 88, 2, 161.7288360595703
0, 88, 3, 152.432861328125
0, 89, 0, 158.6051025390625
0, 89, 1, 175.9768524169922
0, 89, 2, 181.5118560791016
0, 89, 3, 160.9648895263672
0, 90, 0, 165.0556182861328
0, 90, 1, 167.5936431884766
0, 90, 2, 176.2999267578125
0, 90, 3, 159.5167541503906
0, 91, 0, 175.6811828613281
0, 91, 1, 184.3642120361328
0, 91, 2, 174.2906951904297
0, 91, 3, 164.1679534912109
0, 92, 0, 165.8565673828125
0, 92, 1, 184.4390258789062
0, 92, 2, 184.9089813232422
0, 92, 3, 157.9915618896484
0, 93, 0, 173.3323516845703
0, 93, 1, 184.0919952392578
0, 93, 2, 176.0106506347656
0, 93, 3, 167.5142669677734
0, 94, 0, 169.2429046630859
0, 94, 1, 187.6567993164062
0, 94, 2, 156.9033966064453
0, 94, 3, 153.1864471435547
0, 95, 0, 168.5681915283203
0, 95, 1, 186.1910400390625
0, 95, 2, 196.8200225830078
0, 95, 3, 171.1944732666016
0, 96, 0, 188.1642150878906
0, 96, 1, 193.9776306152344
0, 96, 2, 196.3365020751953
0, 96, 3, 180.7939147949219
0, 97, 0, 175.7792053222656
0, 97, 1, 184.8659820556641
0, 97, 2, 183.0786285400391
0, 97, 3, 179.8622436523438
0, 98, 0, 188.6880950927734
0, 98, 1, 194.1267852783203
0, 98, 2, 198.0778045654297
0, 98, 3, 180.3003692626953
0, 99, 0, 201.4286346435547
0, 99, 1, 208.9355163574219
0, 99, 2, 199.9255676269531
0, 99, 3, 158.9853973388672
0, 100, 0, 181.0960540771484
0, 100, 1, 183.2295074462891
0, 100, 2, 179.7972564697266
0, 100, 3, 165.7107238769531
0, 101, 0, 207.72314453125
0, 101, 1, 194.3906402587891
0, 101, 2, 202.7792205810547
0, 101, 3, 177.8899688720703
0, 102, 0, 184.8883666992188
0, 102, 1, 192.7236328125
0, 102, 2, 213.3931579589844
0, 102, 3, 173.6950225830078
0, 103, 0, 191.5921936035156
0, 103, 1, 209.0519714355469
0, 103, 2, 211.0120849609375
0, 103, 3, 197.8609313964844
0, 104, 0, 197.3866882324219
0, 104, 1, 189.4854736328125
0, 104, 2, 181.5650482177734
0, 104, 3, 180.333740234375
0, 105, 0, 185.2655181884766
0, 105, 1, 207.1891937255859
0, 105, 2, 203.3362884521484
0, 105, 3, 202.3321838378906
0, 106, 0, 193.1058654785156
0, 106, 1, 209.633544921875
0, 106, 2, 203.2800140380859
0, 106, 3, 185.7523803710938
0, 107, 0, 204.3305969238281
0, 107, 1, 214.0547027587891
0, 107, 2, 225.3827514648438
0, 107, 3, 200.852783203125
0, 108, 0, 215.5016326904297
0, 108, 1, 234.6211700439453
0, 108, 2, 238.775146484375
0, 108, 3, 229.8720855712891
0, 109, 0, 224.5226440429688
0, 109, 1, 221.9091949462891
0, 109, 2, 224.8634796142578
0, 109, 3, 209.3537750244141
0, 110, 0, 216.2184906005859
0, 110, 1, 231.5204925537109
0, 110, 2, 239.2798767089844
0, 110, 3, 222.8374633789062
0, 111, 0, 244.2370910644531
0, 111, 1, 255.1377716064453
0, 111, 2, 253.0519561767578
0, 111, 3, 236.4974060058594
0, 112, 0, 247.2518920898438
0, 112, 1, 257.353515625
0, 112, 2, 263.3703308105469
0, 112, 3, 258.5094604492188
0, 113, 0, 223.0893707275391
0, 113, 1, 234.2768402099609
0, 113, 2, 250.8922271728516
0, 113, 3, 225.3642578125
0, 114, 0, 233.5552215576172
0, 114, 1, 238.5197143554688
0, 114, 2, 240.7398834228516
0, 114, 3, 216.5698394775391
0, 115, 0, 264.7165222167969
0, 115, 1, 266.0924987792969
0, 115, 2, 254.4859466552734
0, 115, 3, 238.6245574951172
0, 116, 0, 255.6061401367188
0, 116, 1, 274.4330139160156
0, 116, 2, 258.1260681152344
0, 116, 3, 250.9833374023438
0, 117, 0, 261.424072265625
0, 117, 1, 266.1898803710938
0, 117, 2, 268.7044067382812
0, 117, 3, 258.8769226074219
0, 118, 0, 262.2185363769531
0, 118, 1, 264.6451416015625
0, 118, 2, 284.6888427734375
0, 118, 3, 269.71826171875
0, 119, 0, 246.9898681640625
0, 119, 1, 257.3781127929688
0, 119, 2, 275.4319458007812
0, 119, 3, 268.3397521972656
0, 120, 0, 266.6707458496094
0, 120, 1, 275.8550720214844
0, 120, 2, 291.541015625
0, 120, 3, 253.9338989257812
0, 121, 0, 255.5452575683594
0, 121, 1, 261.3589172363281
0, 121, 2, 256.8970031738281
0, 121, 3, 246.1696472167969
0, 122, 0, 281.0588073730469
0, 122, 1, 287.7843933105469
0, 122, 2, 296.9210205078125
0, 122, 3, 267.551025390625
0, 123, 0, 274.379150390625
0, 123, 1, 274.4834289550781
0, 123, 2, 281.4560546875
0, 123, 3, 263.9592895507812
0, 124, 0, 269.2184143066406
0, 124, 1, 286.0820007324219
0, 124, 2, 300.2590942382812
0, 124, 3, 291.6832885742188
0, 125, 0, 289.8592834472656
0, 125, 1, 301.8887329101562
0, 125, 2, 296.01708984375
0, 125, 3, 265.6623229980469
0, 126, 0, 298.9380493164062
0, 126, 1, 306.8755187988281
0, 126, 2, 313.1213989257812
0, 126, 3, 322.2535705566406
0, 127, 0, 298.81005859375
0, 127, 1, 309.4404907226562
0, 127, 2, 314.7953796386719
0, 127, 3, 275.7445373535156
0, 128, 0, 272.01904296875
0, 128, 1, 287.959228515625
0, 128, 2, 304.7334899902344
0, 128, 3, 295.8958129882812
0, 129, 0, 284.4417724609375
0, 129, 1, 291.525390625
0, 129, 2, 306.5007019042969
0, 129, 3, 287.9544067382812
0, 130, 0, 305.4055480957031
0, 130, 1, 323.5145874023438
0, 130, 2, 329.0234069824219
0, 130, 3, 298.9642944335938
0, 131, 0, 282.1011047363281
0, 131, 1, 296.7583618164062
0, 131, 2, 306.2378234863281
0, 131, 3, 290.4414672851562
0, 132, 0, 286.7096862792969
0, 132, 1, 302.4235229492188
0, 132, 2, 325.5151672363281
0, 132, 3, 310.6236267089844
0, 133, 0, 301.5199584960938
0, 133, 1, 313.3244323730469
0, 133, 2, 315.6613159179688
0, 133, 3, 321.4390258789062
0, 134, 0, 315.0913391113281
0, 134, 1, 316.0831909179688
0, 134, 2, 342.7522888183594
0, 134, 3, 313.6373291015625
0, 135, 0, 313.9646301269531
0, 135, 1, 322.8308410644531
0, 135, 2, 329.8988342285156
0, 135, 3, 305.8501281738281
0, 136, 0, 304.8609619140625
0, 136, 1, 323.0028076171875
0, 136, 2, 322.9853515625
0, 136, 3, 307.6828308105469
0, 137, 0, 332.2156677246094
0, 137, 1, 349.2322082519531
0, 137, 2, 365.2303161621094
0, 137, 3, 355.6507568359375
0, 138, 0, 344.748046875
0, 138, 1, 355.9275512695312
0, 138, 2, 348.33056640625
0, 138, 3, 314.5868225097656
0, 139, 0, 321.0832824707031
0, 139, 1, 338.944091796875
0, 139, 2, 347.9989929199219
0, 139, 3, 329.2965698242188
0, 140, 0, 317.3834533691406
0, 140, 1, 325.6894836425781
0, 140, 2, 350.0177917480469
0, 140, 3, 311.3052062988281
0, 141, 0, 338.89599609375
0, 141, 1, 365.0016784667969
0, 141, 2, 363.91650390625
0, 141, 3, 326.0509033203125
0, 142, 0, 345.1524658203125
0, 142, 1, 341.932373046875
0, 142, 2, 364.6866760253906
0, 142, 3, 353.4735107421875
0, 143, 0, 376.816162109375
0, 143, 1, 397.5274963378906
0, 143, 2, 392.2014770507812
0, 143, 3, 371.3614501953125
0, 144, 0, 369.2876586914062
0, 144, 1, 371.6500549316406
0, 144, 2, 396.6341552734375
0, 144, 3, 359.2931823730469
0, 145, 0, 400.5504760742188
0, 145, 1, 433.664306640625
0, 145, 2, 424.0372924804688
0, 145, 3, 401.6282653808594
0, 146, 0, 366.1026000976562
0, 146, 1, 370.4641723632812
0, 146, 2, 398.6357421875
0, 146, 3, 374.162109375
0, 147, 0, 368.0878601074219
0, 147, 1, 362.4032592773438
0, 147, 2, 392.1934509277344
0, 147, 3, 370.2854919433594
0, 148, 0, 350.7354125976562
0, 148, 1, 369.2921447753906
0, 148, 2, 377.4844665527344
0, 148, 3, 359.8462524414062
0, 149, 0, 377.1588134765625
0, 149, 1, 392.637451171875
0, 149, 2, 417.8250732421875
0, 149, 3, 388.8551330566406
0, 150, 0, 375.8421630859375
0, 150, 1, 408.6095886230469
0, 150, 2, 433.6642150878906
0, 150, 3, 390.1316833496094
0, 151, 0, 400.8380737304688
0, 151, 1, 431.9453430175781
0, 151, 2, 431.5576782226562
0, 151, 3, 412.4535522460938
0, 152, 0, 400.53369140625
0, 152, 1, 411.3397521972656
0, 152, 2, 405.5260314941406
0, 152, 3, 399.6238708496094
0, 153, 0, 365.6900024414062
0, 153, 1, 399.4788818359375
0, 153, 2, 384.0723876953125
0, 153, 3, 387.871826171875
0, 154, 0, 361.8622436523438
0, 154, 1, 406.7221374511719
0, 154, 2, 425.5425109863281
0, 154, 3, 393.8640441894531
0, 155, 0, 366.2470703125
0, 155, 1, 401.2559814453125
0, 155, 2, 413.7660522460938
0, 155, 3, 395.1343078613281
0, 156, 0, 386.4614868164062
0, 156, 1, 422.0912170410156
0, 156, 2, 425.8749389648438
0, 156, 3, 401.5962829589844
0, 157, 0, 395.3070678710938
0, 157, 1, 399.9586181640625
0, 157, 2, 415.0516662597656
0, 157, 3, 395.8060302734375
0, 158, 0, 399.9105529785156
0, 158, 1, 431.6583862304688
0, 158, 2, 431.6217651367188
0, 158, 3, 407.6303100585938
0, 159, 0, 396.2544250488281
0, 159, 1, 421.542724609375
0, 159, 2, 423.7434387207031
0, 159, 3, 402.1463012695312
0, 160, 0, 408.1035461425781
0, 160, 1, 449.4175109863281
0, 160, 2, 448.3086547851562
0, 160, 3, 432.9430236816406
0, 161, 0, 436.4666137695312
0, 161, 1, 453.7937622070312
0, 161, 2, 443.2307739257812
0, 161, 3, 427.965576171875
0, 162, 0, 394.9110107421875
0, 162, 1, 426.6094665527344
0, 162, 2, 440.0512084960938
0, 162, 3, 422.6080627441406
0, 163, 0, 406.1696166992188
0, 163, 1, 434.7658386230469
0, 163, 2, 469.4435119628906
0, 163, 3, 452.4714660644531
0, 164, 0, 404.4985961914062
0, 164, 1, 430.3625183105469
0, 164, 2, 453.6972351074219
0, 164, 3, 412.444091796875
0, 165, 0, 447.3177490234375
0, 165, 1, 476.0634765625
0, 165, 2, 468.6750183105469
0, 165, 3, 444.1803894042969
0, 166, 0, 449.8616027832031
0, 166, 1, 459.9959411621094
0, 166, 2, 464.0953674316406
0, 166, 3, 459.0518188476562
0, 167, 0, 432.5966186523438
0, 167, 1, 438.5986938476562
0, 167, 2, 464.9062805175781
0, 167, 3, 435.5331115722656
0, 168, 0, 460.8462829589844
0, 168, 1, 484.44677734375
0, 168, 2, 484.5282287597656
0, 168, 3, 459.0646362304688
0, 169, 0, 438.2151794433594
0, 169, 1, 448.4108581542969
0, 169, 2, 472.7342529296875
0, 169, 3, 455.0573425292969
0, 170, 0, 481.5492553710938
0, 170, 1, 502.2852783203125
0, 170, 2, 488.687255859375
0, 170, 3, 455.70263671875
0, 171, 0, 468.0732421875
0, 171, 1, 487.747314453125
0, 171, 2, 510.6436157226562
0, 171, 3, 469.2465515136719
0, 172, 0, 466.6652221679688
0, 172, 1, 501.4220275878906
0, 172, 2, 489.8008728027344
0, 172, 3, 464.0390014648438
0, 173, 0, 437.6070861816406
0, 173, 1, 486.4908447265625
0, 173, 2, 508.7779235839844
0, 173, 3, 472.6433715820312
0, 174, 0, 451.4443664550781
0, 174, 1, 461.1001892089844
0, 174, 2, 471.9889221191406
0, 174, 3, 434.6473083496094
0, 175, 0, 483.3787841796875
0, 175, 1, 475.1373291015625
0, 175, 2, 473.022705078125
0, 175, 3, 448.5946044921875
0, 176, 0, 469.7918395996094
0, 176, 1, 510.6645812988281
0, 176, 2, 526.3429565429688
0, 176, 3, 497.9393920898438
0, 177, 0, 470.8264465332031
0, 177, 1, 500.8670959472656
0, 177, 2, 500.3563232421875
0, 177, 3, 470.3912048339844
0, 178, 0, 461.1000366210938
0, 178, 1, 450.7244262695312
0, 178, 2, 454.7312316894531
0, 178, 3, 445.271728515625
0, 179, 0, 469.4694519042969
0, 179, 1, 500.3289794921875
0, 179, 2, 510.3104858398438
0, 179, 3, 469.3372497558594
0, 180, 0, 452.3049621582031
0, 180, 1, 476.8679809570312
0, 180, 2, 511.3722839355469
0, 180, 3, 465.8812561035156
0, 181, 0, 472.9316711425781
0, 181, 1, 489.0608520507812
0, 181, 2, 514.3343505859375
0, 181, 3, 478.4400329589844
0, 182, 0, 487.4406127929688
0, 182, 1, 495.7238159179688
0, 182, 2, 504.4176635742188
0, 182, 3, 487.0578308105469
0, 183, 0, 489.9219665527344
0, 183, 1, 502.3148803710938
0, 183, 2, 530.4959716796875
0, 183, 3, 507.3517761230469
0, 184, 0, 515.0814208984375
0, 184, 1, 521.659423828125
0, 184, 2, 528.1439208984375
0, 184, 3, 507.1402893066406
0, 185, 0, 489.4569091796875
0, 185, 1, 520.6332397460938
0, 185, 2, 524.5513916015625
0, 185, 3, 516.2734375
0, 186, 0, 474.6149291992188
0, 186, 1, 505.7242431640625
0, 186, 2, 531.5371704101562
0, 186, 3, 473.9198913574219
0, 187, 0, 472.9863891601562
0, 187, 1, 503.8705139160156
0, 187, 2, 523.8299560546875
0, 187, 3, 521.46142578125
0, 188, 0, 490.4633178710938
0, 188, 1, 499.689453125
0, 188, 2, 473.9099731445312
0, 188, 3, 474.3168640136719
0, 189, 0, 532.5553588867188
0, 189, 1, 554.407958984375
0, 189, 2, 563.289306640625
0, 189, 3, 531.8765258789062
0, 190, 0, 478.9271240234375
0, 190, 1, 520.8534545898438
0, 190, 2, 511.2398681640625
0, 190, 3, 479.0727844238281
0, 191, 0, 514.9854125976562
0, 191, 1, 529.6652221679688
0, 191, 2, 537.550048828125
0, 191, 3, 508.8945922851562
0, 192, 0, 520.2833251953125
0, 192, 1, 563.424072265625
0, 192, 2, 600.2958374023438
0, 192, 3, 538.3255615234375
0, 193, 0, 488.3668212890625
0, 193, 1, 502.9499206542969
0, 193, 2, 515.2123413085938
0, 193, 3, 495.3173522949219
0, 194, 0, 500.1964111328125
0, 194, 1, 531.5372314453125
0, 194, 2, 555.13330078125
0, 194, 3, 500.2450256347656
0, 195, 0, 534.4029541015625
0, 195, 1, 576.3082275390625
0, 195, 2, 552.0747680664062
0, 195, 3, 539.0473022460938
0, 196, 0, 501.2878112792969
0, 196, 1, 517.3097534179688
0, 196, 2, 550.7762451171875
0, 196, 3, 528.5045776367188
0, 197, 0, 510.1043090820312
0, 197, 1, 538.434326171875
0, 197, 2, 543.0199584960938
0, 197, 3, 525.641357421875
0, 198, 0, 538.163818359375
0, 198, 1, 560.9937744140625
0, 198, 2, 560.5018920898438
0, 198, 3, 535.6653442382812
0, 199, 0, 532.3694458007812
0, 199, 1, 548.2346801757812
0, 199, 2, 563.4224853515625
0, 199, 3, 524.2605590820312
0, 200, 0, 506.2335815429688
0, 200, 1, 538.7431030273438
0, 200, 2, 551.213623046875
0, 200, 3, 497.0097961425781
0, 201, 0, 540.4609985351562
0, 201, 1, 565.2537231445312
0, 201, 2, 564.4849243164062
0, 201, 3, 555.1499633789062
0, 202, 0, 536.0558471679688
0, 202, 1, 551.8677978515625
0, 202, 2, 552.4874267578125
0, 202, 3, 530.8772583007812
0, 203, 0, 532.592529296875
0, 203, 1, 576.335205078125
0, 203, 2, 578.218017578125
0, 203, 3, 539.6646728515625
0, 204, 0, 504.8010864257812
0, 204, 1, 556.9573974609375
0, 204, 2, 556.2369384765625
0, 204, 3, 537.3148803710938
0, 205, 0, 534.3525390625
0, 205, 1, 557.0833129882812
0, 205, 2, 560.48486328125
0, 205, 3, 539.8309326171875
0, 206, 0, 507.1847229003906
0, 206, 1, 561.0225219726562
0, 206, 2, 574.6043090820312
0, 206, 3, 524.1776123046875
0, 207, 0, 522.2032470703125
0, 207, 1, 557.4122314453125
0, 207, 2, 552.07958984375
0, 207, 3, 527.0894165039062
0, 208, 0, 544.14306640625
0, 208, 1, 558.038330078125
0, 208, 2, 580.7068481445312
0, 208, 3, 595.5064697265625
0, 209, 0, 533.7312622070312
0, 209, 1, 580.2593994140625
0, 209, 2, 553.6878662109375
0, 209, 3, 491.4929809570312
0, 210, 0, 535.8248901367188
0, 210, 1, 563.1426391601562
0, 210, 2, 549.0550537109375
0, 210, 3, 525.3154296875
0, 211, 0, 559.7779541015625
0, 211, 1, 600.9191284179688
0, 211, 2, 640.2640380859375
0, 211, 3, 589.9990844726562
0, 212, 0, 498.8408813476562
0, 212, 1, 560.9750366210938
0, 212, 2, 587.9223022460938
0, 212, 3, 549.9068603515625
0, 213, 0, 529.3292846679688
0, 213, 1, 583.6519165039062
0, 213, 2, 596.4608154296875
0, 213, 3, 559.3338012695312
0, 214, 0, 540.9536743164062
0, 214, 1, 554.1256103515625
0, 214, 2, 552.7144165039062
0, 214, 3, 534.7178344726562
0, 215, 0, 548.1258544921875
0, 215, 1, 600.6586303710938
0, 215, 2, 591.6493530273438
0, 215, 3, 534.0866088867188
0, 216, 0, 554.9419555664062
0, 216, 1, 585.5718383789062
0, 216, 2, 601.1935424804688
0, 216, 3, 601.2609252929688
0, 217, 0, 537.6912841796875
0, 217, 1, 581.6287841796875
0, 217, 2, 586.6234741210938
0, 217, 3, 534.99853515625
0, 218, 0, 530.5301513671875
0, 218, 1, 567.9981689453125
0, 218, 2, 570.0153198242188
0, 218, 3, 528.1603393554688
0, 219, 0, 527.7749633789062
0, 219, 1, 589.197021484375
0, 219, 2, 603.3104248046875
0, 219, 3, 555.0834350585938
0, 220, 0, 556.6802368164062
0, 220, 1, 574.5054931640625
0, 220, 2, 570.4425048828125
0, 220, 3, 527.964111328125
0, 221, 0, 555.5186157226562
0, 221, 1, 573.4818115234375
0, 221, 2, 582.5006103515625
0, 221, 3, 542.720458984375
0, 222, 0, 548.5662841796875
0, 222, 1, 579.9905395507812
0, 222, 2, 577.4132080078125
0, 222, 3, 546.9219970703125
0, 223, 0, 556.0763549804688
0, 223, 1, 594.2791137695312
0, 223, 2, 612.6319580078125
0, 223, 3, 549.3184814453125
0, 224, 0, 524.5820922851562
0, 224, 1, 540.5546264648438
0, 224, 2, 556.400634765625
0, 224, 3, 532.6478271484375
0, 225, 0, 551.7735595703125
0, 225, 1, 581.2582397460938
0, 225, 2, 606.5602416992188
0, 225, 3, 551.509521484375
0, 226, 0, 538.0579833984375
0, 226, 1, 585.247314453125
0, 226, 2, 610.6004028320312
0, 226, 3, 583.8317260742188
0, 227, 0, 542.2877807617188
0, 227, 1, 575.693603515625
0, 227, 2, 588.44482421875
0, 227, 3, 547.7593994140625
0, 228, 0, 525.2844848632812
0, 228, 1, 565.0563354492188
0, 228, 2, 573.265869140625
0, 228, 3, 563.5201416015625
0, 229, 0, 542.0475463867188
0, 229, 1, 569.2267456054688
0, 229, 2, 565.8741455078125
0, 229, 3, 533.1210327148438
0, 230, 0, 528.3900146484375
0, 230, 1, 555.6317138671875
0, 230, 2, 590.4950561523438
0, 230, 3, 545.6227416992188
0, 231, 0, 572.6438598632812
0, 231, 1, 601.212158203125
0, 231, 2, 587.3655395507812
0, 231, 3, 559.3339233398438
0, 232, 0, 546.8353271484375
0, 232, 1, 582.0753784179688
0, 232, 2, 583.96337890625
0, 232, 3, 523.3898315429688
0, 233, 0, 539.126220703125
0, 233, 1, 564.0767822265625
0, 233, 2, 558.1729736328125
0, 233, 3, 515.1064453125
0, 234, 0, 527.2442016601562
0, 234, 1, 565.2427978515625
0, 234, 2, 567.6165771484375
0, 234, 3, 498.4585571289062
0, 235, 0, 521.176513671875
0, 235, 1, 540.8495483398438
0, 235, 2, 571.7784423828125
0, 235, 3, 539.6297607421875
0, 236, 0, 523.41796875
0, 236, 1, 547.7416381835938
0, 236, 2, 523.3335571289062
0, 236, 3, 504.1196899414062
0, 237, 0, 529.8317260742188
0, 237, 1, 528.724853515625
0, 237, 2, 542.1819458007812
0, 237, 3, 504.1819458007812
0, 238, 0, 557.35205078125
0, 238, 1, 559.879638671875
0, 238, 2, 569.3517456054688
0, 238, 3, 547.7807006835938
0, 239, 0, 501.0416564941406
0, 239, 1, 514.3368530273438
0, 239, 2, 530.2483520507812
0, 239, 3, 494.0659484863281
1, 0, 0, 29.09170532226562
1, 0, 1, 27.24039459228516
1, 0, 2, 19.74797630310059
1, 0, 3, 20.24954414367676
1, 1, 0, 24.11781120300293
1, 1, 1, 21.1195125579834
1, 1, 2, 17.83330917358398
1, 1, 3, 15.17836475372314
1, 2, 0, 25.0949878692627
1, 2, 1, 26.06935119628906
1, 2, 2, 27.99494171142578
1, 2, 3, 21.19402122497559
1, 3, 0, 22.34749031066895
1, 3, 1, 23.83530807495117
1, 3, 2, 24.3250846862793
1, 3, 3, 17.25558280944824
1, 4, 0, 30.89799499511719
1, 4, 1, 35.20418930053711
1, 4, 2, 26.54367065429688
1, 4, 3, 25.45415878295898
1, 5, 0, 27.02586936950684
1, 5, 1, 27.09809303283691
1, 5, 2, 27.94757080078125
1, 5, 3, 28.20393180847168
1, 6, 0, 41.74538040161133
1, 6, 1, 36.31781768798828
1, 6, 2, 34.15871429443359
1, 6, 3, 31.40909385681152
1, 7, 0, 37.0416145324707
1, 7, 1, 36.23715972900391
1, 7, 2, 31.40556907653809
1, 7, 3, 23.90925407409668
1, 8, 0, 41.95919418334961
1, 8, 1, 43.51281356811523
1, 8, 2, 29.45690155029297
1, 8, 3, 18.80834579467773
1, 9, 0, 32.78918838500977
1, 9, 1, 39.38829040527344
1, 9, 2, 33.94797134399414
1, 9, 3, 29.54224586486816
1, 10, 0, 37.45469665527344
1, 10, 1, 37.04060745239258
1, 10, 2, 36.95534896850586
1, 10, 3, 28.66667556762695
1, 11, 0, 38.65147018432617
1, 11, 1, 42.92488098144531
1, 11, 2, 39.55132293701172
1, 11, 3, 29.96903610229492
1, 12, 0, 34.3912239074707
1, 12, 1, 39.00384521484375
1, 12, 2, 32.97106552124023
1, 12, 3, 28.69707107543945
1, 13, 0, 40.91116333007812
1, 13, 1, 35.15458679199219
1, 13, 2, 37.25944137573242
1, 13, 3, 34.71945571899414
1, 14, 0, 43.19282150268555
1, 14, 1, 41.86082077026367
1, 14, 2, 37.66500854492188
1, 14, 3, 35.64411163330078
1, 15, 0, 35.10832214355469
1, 15, 1, 43.89366149902344
1, 15, 2, 42.15178680419922
1, 15, 3, 40.58636474609375
1, 16, 0, 49.65558624267578
1, 16, 1, 47.3177375793457
1, 16, 2, 40.29518890380859
1, 16, 3, 34.94400787353516
1, 17, 0, 31.46115875244141
1, 17, 1, 33.73162078857422
1, 17, 2, 37.13637542724609
1, 17, 3, 27.24477386474609
1, 18, 0, 47.85536575317383
1, 18, 1, 51.14597702026367
1, 18, 2, 40.65232849121094
1, 18, 3, 28.33273315429688
1, 19, 0, 48.45125961303711
1, 19, 1, 47.58201599121094
1, 19, 2, 38.15282821655273
1, 19, 3, 34.41059112548828
1, 20, 0, 53.80797576904297
1, 20, 1, 56.89879608154297
1, 20, 2, 42.72809600830078
1, 20, 3, 36.7318229675293
1, 21, 0, 50.09353637695312
1, 21, 1, 47.76364517211914
1, 21, 2, 50.29804229736328
1, 21, 3, 40.84087753295898
1, 22, 0, 50.10381317138672
1, 22, 1, 42.10327911376953
1, 22, 2, 45.42469787597656
1, 22, 3, 42.2742805480957
1, 23, 0, 44.57133102416992
